Waktu(s)	x1(m)		x2(m)		v1(m/s)	v2(m/s)	Energi(J)
0.000	0.00000000	0.00000000	0.00000000	0.00000000	0.0000
0.010	0.00000811	0.00000011	0.00239844	0.00005295	0.0030
0.020	0.00006104	0.00000290	0.00867524	0.00067780	0.0441
0.030	0.00018730	0.00001905	0.01664730	0.00291609	0.1983
0.040	0.00039130	0.00006997	0.02383973	0.00775562	0.5388
0.050	0.00065535	0.00018403	0.02845207	0.01551724	1.0972
0.060	0.00094987	0.00038786	0.02996684	0.02550788	1.8484
0.070	0.00124688	0.00069623	0.02916720	0.03609671	2.7287
0.080	0.00153065	0.00110477	0.02759470	0.04518523	3.6763
0.090	0.00180119	0.00158851	0.02671703	0.05087498	4.6704
0.100	0.00206961	0.00210712	0.02718671	0.05205908	5.7380
0.110	0.00234789	0.00261446	0.02851399	0.04870507	6.9213
0.120	0.00263806	0.00306911	0.02928286	0.04173474	8.2242
0.130	0.00292597	0.00344187	0.02779755	0.03257746	9.5718
0.140	0.00318239	0.00371800	0.02286373	0.02260367	10.8085
0.150	0.00337121	0.00389419	0.01436099	0.01268115	11.7376
0.160	0.00346120	0.00397257	0.00336431	0.00302748	12.1854
0.170	0.00343650	0.00395481	-0.00822660	-0.00660756	12.0623
0.180	0.00330153	0.00383938	-0.01838038	-0.01654188	11.3954
0.190	0.00307863	0.00362301	-0.02565048	-0.02674593	10.3153
0.200	0.00279965	0.00330553	-0.02961929	-0.03661256	9.0048
0.210	0.00249526	0.00289559	-0.03090319	-0.04502237	7.6348
0.220	0.00218639	0.00241429	-0.03074524	-0.05068015	6.3193
0.230	0.00188093	0.00189460	-0.03039539	-0.05257852	5.1058
0.240	0.00157668	0.00137643	-0.03055670	-0.05039131	3.9986
0.250	0.00126834	0.00089876	-0.03113247	-0.04463212	2.9926
0.260	0.00095515	0.00049169	-0.03136618	-0.03651515	2.0987
0.270	0.00064542	0.00017117	-0.03029073	-0.02758047	1.3483
0.280	0.00035590	-0.00006196	-0.02727234	-0.01923931	0.7776
0.290	0.00010624	-0.00021876	-0.02240144	-0.01241884	0.4031
0.300	-0.00008883	-0.00031651	-0.01655846	-0.00743380	0.2060
0.310	-0.00022631	-0.00037299	-0.01112943	-0.00410937	0.1360
0.320	-0.00031747	-0.00040298	-0.00749813	-0.00207256	0.1361
0.330	-0.00038525	-0.00041784	-0.00653348	-0.00106408	0.1710
0.340	-0.00045729	-0.00042779	-0.00828546	-0.00112493	0.2446
0.350	-0.00055759	-0.00044496	-0.01200734	-0.00257730	0.3952
0.360	-0.00069994	-0.00048532	-0.01647979	-0.00581683	0.6738
0.370	-0.00088558	-0.00056790	-0.02048778	-0.01101899	1.1184
0.380	-0.00110545	-0.00071135	-0.02324516	-0.01789986	1.7368
0.390	-0.00134573	-0.00092882	-0.02459578	-0.02564619	2.5069
0.400	-0.00159394	-0.00122316	-0.02492499	-0.03305535	3.3914
0.410	-0.00184288	-0.00158447	-0.02484331	-0.03883528	4.3582
0.420	-0.00209098	-0.00199092	-0.02479873	-0.04194851	5.3911
0.430	-0.00233906	-0.00241273	-0.02479692	-0.04186877	6.4839
0.440	-0.00258548	-0.00281781	-0.02435257	-0.03865894	7.6195
0.450	-0.00282204	-0.00317724	-0.02268819	-0.03285537	8.7477
0.460	-0.00303274	-0.00346882	-0.01908735	-0.02522213	9.7768
0.470	-0.00319624	-0.00367803	-0.01324389	-0.01648609	10.5864
0.480	-0.00329107	-0.00379661	-0.00545470	-0.00716143	11.0582
0.490	-0.00330166	-0.00382023	0.00342572	0.00247564	11.1110
0.500	-0.00322276	-0.00374656	0.01224686	0.01227269	10.7272
0.510	-0.00306057	-0.00357492	0.01992841	0.02201986	9.9580
0.520	-0.00283035	-0.00330768	0.02578017	0.03130123	8.9060
0.530	-0.00255162	-0.00295262	0.02965117	0.03945978	7.6938
0.540	-0.00224289	-0.00252488	0.03186160	0.04570304	6.4333
0.550	-0.00191807	-0.00204737	0.03296418	0.04931203	5.2075
0.560	-0.00158563	-0.00154886	0.03345041	0.04986938	4.0695
0.570	-0.00125037	-0.00106009	0.03353284	0.04741313	3.0520
0.580	-0.00091669	-0.00060899	0.03309321	0.04245343	2.1798
0.590	-0.00059133	-0.00021653	0.03180809	0.03584564	1.4749
0.600	-0.00028435	0.00010571	0.02938484	0.02857036	0.9532
0.610	-0.00000757	0.00035561	0.02579392	0.02150476	0.6166
0.620	0.00022878	0.00053860	0.02138905	0.01526684	0.4463
0.630	0.00041978	0.00066480	0.01685851	0.01017808	0.4048
0.640	0.00056829	0.00074633	0.01302612	0.00633743	0.4476
0.650	0.00068498	0.00079574	0.01058477	0.00375390	0.5401
0.660	0.00078580	0.00082572	0.00987212	0.00246504	0.6698
0.670	0.00088786	0.00084972	0.01077768	0.00258219	0.8501
0.680	0.00100514	0.00088251	0.01281251	0.00424167	1.1109
0.690	0.00114563	0.00093987	0.01530492	0.00748778	1.4838
0.700	0.00131067	0.00103701	0.01763565	0.01214603	1.9885
0.710	0.00149647	0.00118598	0.01941579	0.01775146	2.6263
0.720	0.00169678	0.00139278	0.02054119	0.02357382	3.3816
0.730	0.00190545	0.00165526	0.02111467	0.02874045	4.2310
0.740	0.00211774	0.00196260	0.02128470	0.03241719	5.1498
0.750	0.00232993	0.00229654	0.02108280	0.03398409	6.1136
0.760	0.00253761	0.00263422	0.02033794	0.03314604	7.0927
0.770	0.00273374	0.00295156	0.01870791	0.02994629	8.0426
0.780	0.00290754	0.00322628	0.01581384	0.02468975	8.8988
0.790	0.00304498	0.00343996	0.01141766	0.01781680	9.5811
0.800	0.00313099	0.00357875	0.00556417	0.00978308	10.0073
0.810	0.00315261	0.00363310	-0.00137487	0.00099053	10.1135
0.820	0.00310195	0.00359719	-0.00877479	-0.00821269	9.8715
0.830	0.00297798	0.00346863	-0.01592060	-0.01747992	9.2978
0.840	0.00278648	0.00324874	-0.02219349	-0.02640164	8.4498
0.850	0.00253833	0.00294342	-0.02720956	-0.03447373	7.4117
0.860	0.00224685	0.00256399	-0.03086275	-0.04112679	6.2766
0.870	0.00192525	0.00212744	-0.03326596	-0.04581592	5.1302
0.880	0.00158500	0.00165558	-0.03462693	-0.04814155	4.0425
0.890	0.00123559	0.00117302	-0.03511936	-0.04795631	3.0662
0.900	0.00088529	0.00070434	-0.03480677	-0.04541638	2.2391
0.910	0.00054227	0.00027111	-0.03364895	-0.04095691	1.5863
0.920	0.00021535	-0.00011047	-0.03158146	-0.03519990	1.1203
0.930	-0.00008638	-0.00043084	-0.02862551	-0.02882750	0.8386
0.940	-0.00035482	-0.00068706	-0.02497282	-0.02246381	0.7224
0.950	-0.00058476	-0.00088181	-0.02100187	-0.01660063	0.7389
0.960	-0.00077546	-0.00102190	-0.01721275	-0.01158114	0.8487
0.970	-0.00093129	-0.00111700	-0.01410358	-0.00763055	1.0159
0.980	-0.00106103	-0.00117860	-0.01203625	-0.00490483	1.2182
0.990	-0.00117596	-0.00121958	-0.01114331	-0.00352465	1.4514
1.000	-0.00128745	-0.00125386	-0.01130989	-0.00357340	1.7274
1.010	-0.00140469	-0.00129585	-0.01223315	-0.00505842	2.0671
1.020	-0.00153336	-0.00135942	-0.01353118	-0.00785485	2.4901
1.030	-0.00167539	-0.00145634	-0.01485528	-0.01166250	3.0077
1.040	-0.00182973	-0.00159446	-0.01596284	-0.01600271	3.6193
1.050	-0.00199350	-0.00177615	-0.01672791	-0.02026718	4.3137
1.060	-0.00216296	-0.00199739	-0.01709590	-0.02380969	5.0719
1.070	-0.00233392	-0.00224800	-0.01701245	-0.02605450	5.8689
1.080	-0.00250135	-0.00251276	-0.01636640	-0.02658895	6.6735
1.090	-0.00265877	-0.00277339	-0.01497771	-0.02521408	7.4454
1.100	-0.00279773	-0.00301070	-0.01263933	-0.02194384	8.1338
1.110	-0.00290786	-0.00320655	-0.00919629	-0.01696218	8.6799
1.120	-0.00297788	-0.00334521	-0.00462807	-0.01056092	9.0243
1.130	-0.00299720	-0.00341418	0.00090220	-0.00308447	9.1178
1.140	-0.00295775	-0.00340453	0.00705435	0.00510095	8.9333
1.150	-0.00285555	-0.00331108	0.01337366	0.01361071	8.4733
1.160	-0.00269131	-0.00313262	0.01938662	0.02202949	7.7712
1.170	-0.00247018	-0.00287230	0.02469540	0.02990330	6.8857
1.180	-0.00220064	-0.00253797	0.02903872	0.03675342	5.8901
1.190	-0.00189302	-0.00214219	0.03230261	0.04211952	4.8614
1.200	-0.00155819	-0.00170180	0.03448555	0.04562457	3.8707
1.210	-0.00120673	-0.00123668	0.03564061	0.04704260	2.9772
1.220	-0.00084862	-0.00076801	0.03582393	0.04634662	2.2259
1.230	-0.00049337	-0.00031620	0.03507289	0.04371958	1.6466
1.240	-0.00015017	0.00010114	0.03342102	0.03952383	1.2533
1.250	0.00017228	0.00047064	0.03093882	0.03423859	1.0440
1.260	0.00046633	0.00078402	0.02777672	0.02838482	1.0012
1.270	0.00072637	0.00103810	0.02418541	0.02245871	1.0947
1.280	0.00094972	0.00123439	0.02049837	0.01688878	1.2869
1.290	0.00113723	0.00137822	0.01707804	0.01201999	1.5405
1.300	0.00129324	0.00147801	0.01424284	0.00811719	1.8259
1.310	0.00142475	0.00154444	0.01220058	0.00537390	2.1266
1.320	0.00154011	0.00158978	0.01101130	0.00391322	2.4405
1.330	0.00164755	0.00162712	0.01059089	0.00377491	2.7765
1.340	0.00175387	0.00166948	0.01075076	0.00489249	3.1488
1.350	0.00186372	0.00172853	0.01125593	0.00707247	3.5705
1.360	0.00197938	0.00181339	0.01187879	0.00998956	4.0491
1.370	0.00210105	0.00192933	0.01243042	0.01320798	4.5836
1.380	0.00222725	0.00207690	0.01276324	0.01622945	5.1644
1.390	0.00235517	0.00225161	0.01275210	0.01855881	5.7739
1.400	0.00248073	0.00244434	0.01227026	0.01977142	6.3866
1.410	0.00259854	0.00264229	0.01117760	0.01956597	6.9694
1.420	0.00270177	0.00283041	0.00933190	0.01779165	7.4821
1.430	0.00278228	0.00299288	0.00662171	0.01444770	7.8798
1.440	0.00283118	0.00311455	0.00300907	0.00966199	8.1177
1.450	0.00283968	0.00318206	-0.00143608	0.00366061	8.1581
1.460	0.00280030	0.00318469	-0.00652501	-0.00326024	7.9780
1.470	0.00270798	0.00311494	-0.01196978	-0.01075343	7.5753
1.480	0.00256086	0.00296900	-0.01742825	-0.01843187	6.9707
1.490	0.00236051	0.00274708	-0.02256021	-0.02587794	6.2064
1.500	0.00211171	0.00245366	-0.02707718	-0.03265944	5.3403
1.510	0.00182172	0.00209750	-0.03077179	-0.03835793	4.4377
1.520	0.00149943	0.00169134	-0.03352209	-0.04260868	3.5640
1.530	0.00115461	0.00125106	-0.03527589	-0.04514529	2.7775
1.540	0.00079726	0.00079459	-0.03602735	-0.04583776	2.1251
1.550	0.00043733	0.00034038	-0.03579906	-0.04471304	1.6388
1.560	0.00008439	-0.00009420	-0.03463800	-0.04195172	1.3349
1.570	-0.00025259	-0.00049422	-0.03262539	-0.03786145	1.2132
1.580	-0.00056571	-0.00084830	-0.02989276	-0.03283417	1.2579
1.590	-0.00084868	-0.00114920	-0.02663236	-0.02729821	1.4407
1.600	-0.00109742	-0.00139398	-0.02309212	-0.02167540	1.7248
1.610	-0.00131052	-0.00158371	-0.01955120	-0.01634990	2.0715
1.620	-0.00148935	-0.00172307	-0.01628091	-0.01164930	2.4459
1.630	-0.00163778	-0.00181966	-0.01350180	-0.00783417	2.8228
1.640	-0.00176149	-0.00188333	-0.01134993	-0.00509015	3.1888
1.650	-0.00186701	-0.00192538	-0.00986207	-0.00351834	3.5418
1.660	-0.00196077	-0.00195763	-0.00898268	-0.00312339	3.8889
1.670	-0.00204828	-0.00199144	-0.00858790	-0.00380315	4.2405
1.680	-0.00213360	-0.00203658	-0.00851655	-0.00534619	4.6070
1.690	-0.00221912	-0.00210022	-0.00859742	-0.00744301	4.9942
1.700	-0.00230551	-0.00218602	-0.00866571	-0.00971342	5.4014
1.710	-0.00239187	-0.00229370	-0.00856747	-0.01174744	5.8202
1.720	-0.00247582	-0.00241887	-0.00815700	-0.01315284	6.2346
1.730	-0.00255351	-0.00255355	-0.00729484	-0.01359997	6.6210
1.740	-0.00261978	-0.00268689	-0.00585331	-0.01285561	6.9499
1.750	-0.00266830	-0.00280628	-0.00373190	-0.01080110	7.1877
1.760	-0.00269197	-0.00289852	-0.00087943	-0.00743453	7.3012
1.770	-0.00268351	-0.00295094	0.00268461	-0.00286105	7.2617
1.780	-0.00263624	-0.00295237	0.00685808	0.00272315	7.0512
1.790	-0.00254491	-0.00289400	0.01145963	0.00904824	6.6664
1.800	-0.00240642	-0.00277002	0.01624836	0.01578733	6.1217
1.810	-0.00222022	-0.00257809	0.02095505	0.02257289	5.4488
1.820	-0.00198847	-0.00231970	0.02531644	0.02901581	4.6935
1.830	-0.00171581	-0.00200021	0.02910401	0.03472967	3.9107
1.840	-0.00140890	-0.00162872	0.03214138	0.03936063	3.1575
1.850	-0.00107589	-0.00121758	0.03430918	0.04262045	2.4878
1.860	-0.00072584	-0.00078154	0.03554102	0.04431701	1.9464
1.870	-0.00036826	-0.00033671	0.03581635	0.04437643	1.5655
1.880	-0.00001264	0.00010069	0.03515570	0.04285128	1.3622
1.890	0.00033193	0.00051559	0.03362069	0.03991315	1.3379
1.900	0.00065721	0.00089514	0.03131755	0.03583117	1.4783
1.910	0.00095623	0.00122952	0.02839937	0.03094134	1.7566
1.920	0.00122380	0.00151250	0.02506235	0.02561259	2.1367
1.930	0.00145683	0.00174155	0.02153234	0.02021508	2.5784
1.940	0.00165458	0.00191773	0.01804230	0.01509380	3.0435
1.950	0.00181853	0.00204535	0.01480469	0.01054798	3.4997
1.960	0.00195207	0.00213140	0.01198536	0.00681505	3.9251
1.970	0.00205997	0.00218491	0.00968523	0.00405737	4.3087
1.980	0.00214762	0.00221607	0.00793385	0.00235095	4.6495
1.990	0.00222036	0.00223538	0.00669478	0.00167744	4.9537
2.000	0.00228293	0.00225268	0.00587973	0.00192160	5.2312
2.010	0.00233896	0.00227619	0.00536603	0.00287757	5.4914
2.020	0.00239078	0.00231168	0.00501251	0.00426548	5.7404
2.030	0.00243925	0.00236186	0.00467111	0.00575819	5.9786
2.040	0.00248375	0.00242606	0.00419429	0.00701491	6.2000
2.050	0.00252222	0.00250030	0.00344070	0.00771699	6.3917
2.060	0.00255122	0.00257766	0.00228227	0.00760019	6.5349
2.070	0.00256616	0.00264894	0.00061478	0.00647910	6.6073
2.080	0.00256159	0.00270357	-0.00162853	0.00426125	6.5854
2.090	0.00253161	0.00273052	-0.00446308	0.00095121	6.4491
2.100	0.00247050	0.00271927	-0.00784308	-0.00335375	6.1850
2.110	0.00237329	0.00266072	-0.01165946	-0.00847352	5.7912
2.120	0.00223640	0.00254791	-0.01574766	-0.01415872	5.2784
2.130	0.00205811	0.00237666	-0.01990423	-0.02010686	4.6717
2.140	0.00183882	0.00214602	-0.02390888	-0.02598125	4.0079
2.150	0.00158115	0.00185845	-0.02754712	-0.03143318	3.3324
2.160	0.00128974	0.00151988	-0.03062929	-0.03612728	2.6943
2.170	0.00097093	0.00113942	-0.03300332	-0.03976871	2.1412
2.180	0.00063240	0.00072879	-0.03456108	-0.04212934	1.7141
2.190	0.00028264	0.00030158	-0.03524018	-0.04306939	1.4431
2.200	-0.00006942	-0.00012772	-0.03502368	-0.04255071	1.3449
2.210	-0.00041493	-0.00054478	-0.03393958	-0.04063964	1.4214
2.220	-0.00074555	-0.00093641	-0.03206065	-0.03749889	1.6596
2.230	-0.00105388	-0.00129146	-0.02950323	-0.03337009	2.0336
2.240	-0.00133387	-0.00160150	-0.02642294	-0.02855015	2.5081
2.250	-0.00158121	-0.00186125	-0.02300533	-0.02336487	3.0420
2.260	-0.00179352	-0.00206868	-0.01945115	-0.01814300	3.5944
2.270	-0.00197044	-0.00222501	-0.01595748	-0.01319255	4.1282
2.280	-0.00211346	-0.00233433	-0.01269795	-0.00878035	4.6148
2.290	-0.00222563	-0.00240312	-0.00980573	-0.00511492	5.0356
2.300	-0.00231108	-0.00243959	-0.00736241	-0.00233270	5.3827
2.310	-0.00237447	-0.00245291	-0.00539442	-0.00048833	5.6574
2.320	-0.00242047	-0.00245238	-0.00387650	0.00044993	5.8670
2.330	-0.00245327	-0.00244655	-0.00274029	0.00059821	6.0225
2.340	-0.00247621	-0.00244242	-0.00188532	0.00014720	6.1343
2.350	-0.00249151	-0.00244478	-0.00119017	-0.00065539	6.2102
2.360	-0.00250011	-0.00245577	-0.00052250	-0.00152885	6.2531
2.370	-0.00250161	-0.00247464	0.00025169	-0.00218721	6.2605
2.380	-0.00249430	-0.00249791	0.00125898	-0.00236738	6.2246
2.390	-0.00247528	-0.00251967	0.00260859	-0.00185401	6.1333
2.400	-0.00244071	-0.00253218	0.00438157	-0.00049865	5.9730
2.410	-0.00238609	-0.00252659	0.00662012	0.00176841	5.7314
2.420	-0.00230677	-0.00249380	0.00931917	0.00493363	5.4006
2.430	-0.00219836	-0.00242523	0.01242237	0.00890231	4.9802
2.440	-0.00205732	-0.00231363	0.01582408	0.01350623	4.4800
2.450	-0.00188137	-0.00215375	0.01937777	0.01851571	3.9201
2.460	-0.00166984	-0.00194288	0.02290952	0.02365554	3.3305
2.470	-0.00142387	-0.00168121	0.02623434	0.02862424	2.7489
2.480	-0.00114644	-0.00137199	0.02917265	0.03311607	2.2167
2.490	-0.00084224	-0.00102144	0.03156446	0.03684462	1.7746
2.500	-0.00051741	-0.00063846	0.03328012	0.03956620	1.4587
2.510	-0.00017920	-0.00023408	0.03422743	0.04110067	1.2958
2.520	0.00016441	0.00017925	0.03435571	0.04134712	1.3012
2.530	0.00050515	0.00058851	0.03365785	0.04029239	1.4762
2.540	0.00083493	0.00098100	0.03217067	0.03801143	1.8085
2.550	0.00114620	0.00134516	0.02997356	0.03465940	2.2732
2.560	0.00143242	0.00167135	0.02718463	0.03045707	2.8352
2.570	0.00168841	0.00195236	0.02395363	0.02567139	3.4535
2.580	0.00191059	0.00218380	0.02045122	0.02059348	4.0851
2.590	0.00209713	0.00236423	0.01685519	0.01551625	4.6898
2.600	0.00224795	0.00249505	0.01333514	0.01071302	5.2339
2.610	0.00236457	0.00258019	0.01003769	0.00641846	5.6929
2.620	0.00244982	0.00262572	0.00707447	0.00281242	6.0530
2.630	0.00250741	0.00263912	0.00451452	0.00000763	6.3103
2.640	0.00254154	0.00262868	0.00238174	-0.00195786	6.4695
2.650	0.00255641	0.00260264	0.00065702	-0.00312271	6.5410
2.660	0.00255586	0.00256853	-0.00071599	-0.00359794	6.5380
2.670	0.00254298	0.00253241	-0.00182295	-0.00355610	6.4736
2.680	0.00251993	0.00249841	-0.00276976	-0.00321451	6.3584
2.690	0.00248773	0.00246832	-0.00367313	-0.00281427	6.1990
2.700	0.00244622	0.00244151	-0.00465085	-0.00259697	5.9975
2.710	0.00239410	0.00241503	-0.00581185	-0.00278185	5.7520
2.720	0.00232907	0.00238394	-0.00724616	-0.00354560	5.4581
2.730	0.00224806	0.00234179	-0.00901534	-0.00500675	5.1110
2.740	0.00214756	0.00228130	-0.01114455	-0.00721559	4.7083
2.750	0.00202402	0.00219505	-0.01361741	-0.01015002	4.2525
2.760	0.00187426	0.00207618	-0.01637488	-0.01371713	3.7528
2.770	0.00169589	0.00191912	-0.01931876	-0.01776003	3.2262
2.780	0.00148769	0.00172009	-0.02231951	-0.02206919	2.6976
2.790	0.00124981	0.00147766	-0.02522729	-0.02639778	2.1979
2.800	0.00098398	0.00119296	-0.02788487	-0.03047999	1.7614
2.810	0.00069346	0.00086977	-0.03014042	-0.03405144	1.4222
2.820	0.00038296	0.00051444	-0.03185922	-0.03687016	1.2109
2.830	0.00005843	0.00013555	-0.03293298	-0.03873629	1.1504
2.840	-0.00027329	-0.00025663	-0.03328694	-0.03950874	1.2533
2.850	-0.00060479	-0.00065074	-0.03288444	-0.03911694	1.5201
2.860	-0.00092847	-0.00103510	-0.03172929	-0.03756656	1.9385
2.870	-0.00123701	-0.00139847	-0.02986584	-0.03493844	2.4840
2.880	-0.00152370	-0.00173076	-0.02737664	-0.03138127	3.1225
2.890	-0.00178284	-0.00202367	-0.02437733	-0.02709879	3.8129
2.900	-0.00201001	-0.00227113	-0.02100870	-0.02233312	4.5115
2.910	-0.00220230	-0.00246959	-0.01742626	-0.01734567	5.1759
2.920	-0.00235835	-0.00261817	-0.01378809	-0.01239745	5.7690
2.930	-0.00247837	-0.00271848	-0.01024224	-0.00772995	6.2619
2.940	-0.00256393	-0.00277440	-0.00691527	-0.00354797	6.6359
2.950	-0.00261773	-0.00279158	-0.00390310	-0.00000532	6.8828
2.960	-0.00264324	-0.00277695	-0.00126531	0.00280548	7.0041
2.970	-0.00264436	-0.00273800	0.00097690	0.00485884	7.0091
2.980	-0.00262497	-0.00268217	0.00283927	0.00619637	6.9123
2.990	-0.00258868	-0.00261612	0.00437009	0.00692144	6.7305
3.000	-0.00253843	-0.00254527	0.00564374	0.00718841	6.4803
3.010	-0.00247635	-0.00247325	0.00675275	0.00718738	6.1758
3.020	-0.00240359	-0.00240172	0.00779889	0.00712578	5.8280
3.030	-0.00232025	-0.00233025	0.00888376	0.00720866	5.4439
3.040	-0.00222547	-0.00225645	0.01009927	0.00761959	5.0277
3.050	-0.00211758	-0.00217628	0.01151855	0.00850388	4.5820
3.060	-0.00199427	-0.00208448	0.01318793	0.00995555	4.1098
3.070	-0.00185294	-0.00197515	0.01512102	0.01200891	3.6166
3.080	-0.00169104	-0.00184238	0.01729565	0.01463521	3.1120
3.090	-0.00150641	-0.00168083	0.01965415	0.01774430	2.6112
3.100	-0.00129764	-0.00148636	0.02210724	0.02119122	2.1346
3.110	-0.00106433	-0.00125651	0.02454099	0.02478692	1.7074
3.120	-0.00080731	-0.00099086	0.02682621	0.02831260	1.3575
3.130	-0.00052874	-0.00069126	0.02882892	0.03153664	1.1128
3.140	-0.00023210	-0.00036189	0.03042111	0.03423288	0.9980
3.150	0.00007793	-0.00000904	0.03149049	0.03619878	1.0317
3.160	0.00039567	0.00035911	0.03194889	0.03727202	1.2236
3.170	0.00071468	0.00073305	0.03173865	0.03734393	1.5725
3.180	0.00102813	0.00110249	0.03083685	0.03636847	2.0657
3.190	0.00132915	0.00145699	0.02925735	0.03436599	2.6793
3.200	0.00161118	0.00178666	0.02705028	0.03142154	3.3798
3.210	0.00186834	0.00208275	0.02429907	0.02767779	4.1268
3.220	0.00209572	0.00233818	0.02111488	0.02332373	4.8766
3.230	0.00228963	0.00254792	0.01762886	0.01857979	5.5859
3.240	0.00244776	0.00270926	0.01398246	0.01368114	6.2154
3.250	0.00256922	0.00282181	0.01031694	0.00886017	6.7334
3.260	0.00265447	0.00288744	0.00676292	0.00432965	7.1173
3.270	0.00270522	0.00290997	0.00343104	0.00026760	7.3556
3.280	0.00272412	0.00289479	0.00040479	-0.00319493	7.4468
3.290	0.00271451	0.00284833	-0.00226412	-0.00598228	7.3989
3.300	0.00268009	0.00277746	-0.00455731	-0.00807819	7.2265
3.310	0.00262457	0.00268893	-0.00648859	-0.00952491	6.9488
3.320	0.00255139	0.00258881	-0.00810025	-0.01041737	6.5868
3.330	0.00246342	0.00248198	-0.00945742	-0.01089306	6.1609
3.340	0.00236282	0.00237179	-0.01064082	-0.01111815	5.6890
3.350	0.00225089	0.00225985	-0.01173861	-0.01127151	5.1863
3.360	0.00212804	0.00214601	-0.01283764	-0.01152774	4.6644
3.370	0.00199387	0.00202844	-0.01401491	-0.01204100	4.1326
